#K-Path          Energy     s     py     pz     px    dxy    dyz    dz2    dxz    dx2    tot
# NKPTS & NBANDS: 300  64
# Band-Index    1
   0.00000    -12.503861  0.052  0.000  0.000  0.000  0.000  0.000  0.000  0.000  0.000  0.056
   0.01407    -12.503172  0.052  0.000  0.000  0.000  0.000  0.000  0.000  0.000  0.000  0.056
   0.02815    -12.501088  0.052  0.000  0.000  0.000  0.000  0.000  0.000  0.000  0.000  0.056
   0.04222    -12.497609  0.052  0.000  0.000  0.000  0.000  0.000  0.000  0.000  0.000  0.056
   0.05630    -12.492737  0.052  0.000  0.000  0.000  0.000  0.000  0.000  0.000  0.000  0.056
   0.07037    -12.486471  0.052  0.000  0.000  0.000  0.000  0.000  0.000  0.000  0.000  0.056
   0.08444    -12.478814  0.052  0.000  0.000  0.000  0.000  0.000  0.000  0.000  0.000  0.052
   0.09852    -12.469771  0.052  0.000  0.000  0.000  0.000  0.000  0.000  0.000  0.000  0.052
   0.11259    -12.459343  0.052  0.000  0.000  0.000  0.000  0.000  0.000  0.000  0.000  0.052
   0.12667    -12.447535  0.052  0.000  0.000  0.000  0.000  0.000  0.000  0.000  0.000  0.052
   0.14074    -12.434351  0.052  0.000  0.000  0.000  0.000  0.000  0.000  0.000  0.000  0.052
   0.15481    -12.419796  0.052  0.000  0.000  0.000  0.000  0.000  0.000  0.000  0.000  0.052
   0.16889    -12.403884  0.052  0.000  0.000  0.000  0.000  0.000  0.000  0.000  0.000  0.052
   0.18296    -12.386624  0.052  0.000  0.000  0.000  0.000  0.000  0.000  0.000  0.000  0.052
   0.19704    -12.368010  0.052  0.000  0.000  0.000  0.000  0.000  0.000  0.000  0.000  0.052
   0.21111    -12.348053  0.052  0.000  0.000  0.000  0.000  0.000  0.000  0.000  0.000  0.052
   0.22518    -12.326759  0.052  0.000  0.000  0.000  0.000  0.000  0.000  0.000  0.000  0.052
   0.23926    -12.304139  0.052  0.000  0.000  0.000  0.000  0.000  0.000  0.000  0.000  0.052
   0.25333    -12.280203  0.052  0.000  0.000  0.000  0.000  0.000  0.000  0.000  0.000  0.052
   0.26741    -12.254963  0.048  0.004  0.000  0.000  0.000  0.000  0.000  0.000  0.000  0.052
   0.28148    -12.228430  0.048  0.004  0.000  0.000  0.000  0.000  0.000  0.000  0.000  0.052
   0.29556    -12.200622  0.048  0.004  0.000  0.000  0.000  0.000  0.000  0.000  0.000  0.052
   0.30963    -12.171553  0.048  0.004  0.000  0.000  0.000  0.000  0.000  0.000  0.000  0.052
   0.32370    -12.141241  0.048  0.004  0.000  0.000  0.000  0.000  0.000  0.000  0.000  0.052
   0.33778    -12.109723  0.048  0.004  0.000  0.000  0.000  0.000  0.000  0.000  0.000  0.052
   0.35185    -12.077003  0.048  0.004  0.000  0.000  0.000  0.000  0.000  0.000  0.000  0.052
   0.36593    -12.043106  0.044  0.004  0.000  0.000  0.000  0.000  0.000  0.000  0.000  0.052
   0.38000    -12.008060  0.044  0.004  0.000  0.000  0.000  0.000  0.000  0.000  0.000  0.052
   0.39407    -11.971894  0.044  0.004  0.000  0.000  0.000  0.000  0.000  0.000  0.000  0.048
   0.40815    -11.934643  0.044  0.004  0.000  0.000  0.000  0.000  0.000  0.000  0.000  0.048
   0.42222    -11.896347  0.044  0.004  0.000  0.000  0.000  0.000  0.000  0.000  0.000  0.048
   0.43630    -11.857052  0.040  0.004  0.000  0.000  0.000  0.000  0.000  0.000  0.000  0.048
   0.45037    -11.816811  0.040  0.004  0.000  0.000  0.000  0.000  0.000  0.000  0.000  0.048
   0.46444    -11.775684  0.040  0.008  0.000  0.000  0.000  0.000  0.000  0.000  0.000  0.048
   0.47852    -11.733745  0.040  0.008  0.000  0.000  0.000  0.000  0.000  0.000  0.000  0.048
   0.49259    -11.691082  0.036  0.008  0.000  0.000  0.000  0.000  0.000  0.000  0.000  0.048
   0.50667    -11.647804  0.036  0.008  0.000  0.000  0.000  0.000  0.000  0.000  0.000  0.044
   0.52074    -11.604023  0.036  0.008  0.000  0.000  0.000  0.000  0.000  0.000  0.000  0.044
   0.53481    -11.559892  0.032  0.008  0.000  0.000  0.000  0.000  0.000  0.000  0.000  0.044
   0.54889    -11.515602  0.032  0.008  0.000  0.000  0.000  0.000  0.000  0.000  0.000  0.044
   0.56296    -11.471400  0.028  0.008  0.000  0.000  0.000  0.000  0.000  0.000  0.000  0.040
   0.57704    -11.427604  0.028  0.008  0.000  0.004  0.000  0.000  0.000  0.000  0.000  0.040
   0.59111    -11.384635  0.024  0.012  0.000  0.004  0.000  0.000  0.000  0.000  0.000  0.036
   0.60518    -11.343063  0.020  0.012  0.000  0.004  0.000  0.000  0.000  0.000  0.000  0.036
   0.61926    -11.303672  0.016  0.012  0.000  0.004  0.000  0.000  0.000  0.000  0.000  0.032
   0.63333    -11.267537  0.012  0.012  0.000  0.004  0.000  0.000  0.000  0.000  0.000  0.032
   0.64741    -11.236117  0.008  0.012  0.000  0.004  0.000  0.000  0.000  0.000  0.000  0.028
   0.66148    -11.211293  0.004  0.012  0.000  0.004  0.000  0.000  0.000  0.000  0.000  0.024
   0.67555    -11.195166  0.000  0.012  0.000  0.004  0.000  0.000  0.000  0.000  0.000  0.024
   0.68963    -11.189545  0.000  0.008  0.012  0.000  0.000  0.000  0.000  0.000  0.000  0.020
   0.68963    -11.189545  0.000  0.000  0.012  0.008  0.000  0.000  0.000  0.000  0.000  0.020
   0.69958    -11.191585  0.000  0.012  0.008  0.000  0.000  0.000  0.000  0.000  0.000  0.022
   0.70953    -11.197564  0.002  0.012  0.008  0.000  0.000  0.000  0.000  0.000  0.000  0.022
   0.71948    -11.207096  0.004  0.012  0.008  0.000  0.000  0.000  0.000  0.000  0.000  0.024
   0.72944    -11.219642  0.006  0.012  0.008  0.000  0.000  0.000  0.000  0.000  0.000  0.026
   0.73939    -11.234627  0.008  0.012  0.008  0.000  0.000  0.000  0.000  0.000  0.000  0.028
   0.74934    -11.251502  0.010  0.010  0.008  0.000  0.000  0.000  0.000  0.000  0.000  0.030
   0.75929    -11.269796  0.012  0.010  0.008  0.000  0.000  0.000  0.000  0.000  0.000  0.030
   0.76924    -11.289107  0.014  0.010  0.008  0.000  0.000  0.000  0.000  0.000  0.000  0.032
   0.77920    -11.309116  0.016  0.008  0.006  0.000  0.000  0.000  0.000  0.000  0.000  0.034
   0.78915    -11.329569  0.018  0.008  0.006  0.000  0.000  0.000  0.000  0.000  0.000  0.034
   0.79910    -11.350265  0.020  0.008  0.006  0.000  0.000  0.000  0.000  0.000  0.000  0.034
   0.80905    -11.371046  0.022  0.008  0.006  0.000  0.000  0.000  0.000  0.000  0.000  0.036
   0.81900    -11.391783  0.024  0.008  0.006  0.000  0.000  0.000  0.000  0.000  0.000  0.038
   0.82896    -11.412376  0.024  0.006  0.006  0.000  0.000  0.000  0.000  0.000  0.000  0.038
   0.83891    -11.432744  0.026  0.006  0.006  0.000  0.000  0.000  0.000  0.000  0.000  0.038
   0.84886    -11.452819  0.026  0.006  0.006  0.000  0.000  0.000  0.000  0.000  0.000  0.040
   0.85881    -11.472547  0.028  0.006  0.006  0.000  0.000  0.000  0.000  0.000  0.000  0.040
   0.86876    -11.491883  0.028  0.006  0.006  0.000  0.000  0.000  0.000  0.000  0.000  0.042
   0.87871    -11.510788  0.030  0.006  0.006  0.000  0.000  0.000  0.000  0.000  0.000  0.042
   0.88867    -11.529232  0.030  0.006  0.006  0.000  0.000  0.000  0.000  0.000  0.000  0.042
   0.89862    -11.547186  0.032  0.006  0.006  0.000  0.000  0.000  0.000  0.000  0.000  0.042
   0.90857    -11.564628  0.032  0.006  0.006  0.000  0.000  0.000  0.000  0.000  0.000  0.044
   0.91852    -11.581539  0.032  0.006  0.006  0.000  0.000  0.000  0.000  0.000  0.000  0.044
   0.92847    -11.597900  0.032  0.006  0.004  0.000  0.000  0.000  0.000  0.000  0.000  0.044
   0.93843    -11.613697  0.034  0.006  0.004  0.000  0.000  0.000  0.000  0.000  0.000  0.044
   0.94838    -11.628916  0.034  0.006  0.004  0.000  0.000  0.000  0.000  0.000  0.000  0.044
   0.95833    -11.643548  0.034  0.006  0.004  0.000  0.000  0.000  0.000  0.000  0.000  0.046
   0.96828    -11.657580  0.034  0.004  0.004  0.000  0.000  0.000  0.000  0.000  0.000  0.046
   0.97823    -11.671005  0.036  0.004  0.004  0.000  0.000  0.000  0.000  0.000  0.000  0.046
   0.98818    -11.683814  0.036  0.004  0.004  0.000  0.000  0.000  0.000  0.000  0.000  0.046
   0.99814    -11.696001  0.036  0.004  0.004  0.000  0.000  0.000  0.000  0.000  0.000  0.046
   1.00809    -11.707558  0.036  0.004  0.004  0.000  0.000  0.000  0.000  0.000  0.000  0.046
   1.01804    -11.718479  0.036  0.004  0.004  0.000  0.000  0.000  0.000  0.000  0.000  0.046
   1.02799    -11.728761  0.038  0.004  0.004  0.000  0.000  0.000  0.000  0.000  0.000  0.046
   1.03794    -11.738398  0.038  0.004  0.004  0.000  0.000  0.000  0.000  0.000  0.000  0.046
   1.04790    -11.747386  0.038  0.004  0.004  0.000  0.000  0.000  0.000  0.000  0.000  0.048
   1.05785    -11.755722  0.038  0.004  0.004  0.000  0.000  0.000  0.000  0.000  0.000  0.048
   1.06780    -11.763402  0.038  0.004  0.004  0.000  0.000  0.000  0.000  0.000  0.000  0.048
   1.07775    -11.770423  0.038  0.004  0.004  0.000  0.000  0.000  0.000  0.000  0.000  0.048
   1.08770    -11.776783  0.038  0.004  0.004  0.000  0.000  0.000  0.000  0.000  0.000  0.048
   1.09766    -11.782479  0.038  0.004  0.004  0.000  0.000  0.000  0.000  0.000  0.000  0.048
   1.10761    -11.787508  0.038  0.004  0.004  0.000  0.000  0.000  0.000  0.000  0.000  0.048
   1.11756    -11.791871  0.038  0.004  0.004  0.000  0.000  0.000  0.000  0.000  0.000  0.048
   1.12751    -11.795566  0.038  0.004  0.004  0.000  0.000  0.000  0.000  0.000  0.000  0.048
   1.13746    -11.798590  0.038  0.004  0.004  0.000  0.000  0.000  0.000  0.000  0.000  0.048
   1.14741    -11.800943  0.038  0.004  0.004  0.000  0.000  0.000  0.000  0.000  0.000  0.048
   1.15737    -11.802624  0.040  0.004  0.004  0.000  0.000  0.000  0.000  0.000  0.000  0.048
   1.16732    -11.803633  0.040  0.004  0.004  0.000  0.000  0.000  0.000  0.000  0.000  0.048
   1.17727    -11.803967  0.040  0.004  0.004  0.000  0.000  0.000  0.000  0.000  0.000  0.048
   1.17727    -11.803967  0.040  0.004  0.004  0.000  0.000  0.000  0.000  0.000  0.000  0.048
   1.18722    -11.807586  0.038  0.004  0.004  0.000  0.000  0.000  0.000  0.000  0.000  0.048
   1.19717    -11.817816  0.040  0.004  0.004  0.000  0.000  0.000  0.000  0.000  0.000  0.048
   1.20713    -11.833232  0.040  0.004  0.002  0.000  0.000  0.000  0.000  0.000  0.000  0.046
   1.21708    -11.852285  0.040  0.002  0.002  0.000  0.000  0.000  0.000  0.000  0.000  0.048
   1.22703    -11.873714  0.042  0.002  0.002  0.000  0.000  0.000  0.000  0.000  0.000  0.048
   1.23698    -11.896616  0.042  0.002  0.002  0.000  0.000  0.000  0.000  0.000  0.000  0.050
   1.24693    -11.920374  0.042  0.002  0.002  0.000  0.000  0.000  0.000  0.000  0.000  0.050
   1.25689    -11.944570  0.044  0.002  0.002  0.000  0.000  0.000  0.000  0.000  0.000  0.050
   1.26684    -11.968920  0.046  0.002  0.002  0.000  0.000  0.000  0.000  0.000  0.000  0.050
   1.27679    -11.993224  0.044  0.002  0.002  0.000  0.000  0.000  0.000  0.000  0.000  0.050
   1.28674    -12.017344  0.044  0.002  0.002  0.000  0.000  0.000  0.000  0.000  0.000  0.050
   1.29669    -12.041174  0.046  0.002  0.002  0.000  0.000  0.000  0.000  0.000  0.000  0.052
   1.30664    -12.064641  0.046  0.002  0.002  0.000  0.000  0.000  0.000  0.000  0.000  0.052
   1.31660    -12.087682  0.048  0.002  0.002  0.000  0.000  0.000  0.000  0.000  0.000  0.052
   1.32655    -12.110256  0.048  0.002  0.002  0.000  0.000  0.000  0.000  0.000  0.000  0.050
   1.33650    -12.132327  0.048  0.002  0.002  0.000  0.000  0.000  0.000  0.000  0.000  0.050
   1.34645    -12.153873  0.048  0.002  0.002  0.000  0.000  0.000  0.000  0.000  0.000  0.052
   1.35640    -12.174868  0.050  0.002  0.000  0.000  0.000  0.000  0.000  0.000  0.000  0.052
   1.36636    -12.195289  0.048  0.002  0.000  0.000  0.000  0.000  0.000  0.000  0.000  0.052
   1.37631    -12.215120  0.048  0.000  0.000  0.000  0.000  0.000  0.000  0.000  0.000  0.052
   1.38626    -12.234346  0.048  0.000  0.000  0.000  0.000  0.000  0.000  0.000  0.000  0.052
   1.39621    -12.252957  0.048  0.000  0.000  0.000  0.000  0.000  0.000  0.000  0.000  0.052
   1.40616    -12.270944  0.050  0.000  0.000  0.000  0.000  0.000  0.000  0.000  0.000  0.052
   1.41612    -12.288297  0.050  0.000  0.000  0.000  0.000  0.000  0.000  0.000  0.000  0.054
   1.42607    -12.305008  0.050  0.000  0.000  0.000  0.000  0.000  0.000  0.000  0.000  0.054
   1.43602    -12.321072  0.050  0.000  0.000  0.000  0.000  0.000  0.000  0.000  0.000  0.054
   1.44597    -12.336482  0.050  0.000  0.000  0.000  0.000  0.000  0.000  0.000  0.000  0.054
   1.45592    -12.351233  0.050  0.000  0.000  0.000  0.000  0.000  0.000  0.000  0.000  0.054
   1.46587    -12.365321  0.050  0.000  0.000  0.000  0.000  0.000  0.000  0.000  0.000  0.054
   1.47583    -12.378742  0.052  0.000  0.000  0.000  0.000  0.000  0.000  0.000  0.000  0.054
   1.48578    -12.391492  0.052  0.000  0.000  0.000  0.000  0.000  0.000  0.000  0.000  0.054
   1.49573    -12.403568  0.052  0.000  0.000  0.000  0.000  0.000  0.000  0.000  0.000  0.054
   1.50568    -12.414970  0.052  0.000  0.000  0.000  0.000  0.000  0.000  0.000  0.000  0.054
   1.51563    -12.425701  0.052  0.000  0.000  0.000  0.000  0.000  0.000  0.000  0.000  0.054
   1.52559    -12.435750  0.052  0.000  0.000  0.000  0.000  0.000  0.000  0.000  0.000  0.054
   1.53554    -12.445114  0.052  0.000  0.000  0.000  0.000  0.000  0.000  0.000  0.000  0.054
   1.54549    -12.453791  0.052  0.000  0.000  0.000  0.000  0.000  0.000  0.000  0.000  0.054
   1.55544    -12.461780  0.052  0.000  0.000  0.000  0.000  0.000  0.000  0.000  0.000  0.054
   1.56539    -12.469078  0.052  0.000  0.000  0.000  0.000  0.000  0.000  0.000  0.000  0.054
   1.57534    -12.475685  0.052  0.000  0.000  0.000  0.000  0.000  0.000  0.000  0.000  0.054
   1.58530    -12.481599  0.052  0.000  0.000  0.000  0.000  0.000  0.000  0.000  0.000  0.054
   1.59525    -12.486819  0.052  0.000  0.000  0.000  0.000  0.000  0.000  0.000  0.000  0.054
   1.60520    -12.491344  0.052  0.000  0.000  0.000  0.000  0.000  0.000  0.000  0.000  0.054
   1.61515    -12.495173  0.052  0.000  0.000  0.000  0.000  0.000  0.000  0.000  0.000  0.054
   1.62510    -12.498305  0.052  0.000  0.000  0.000  0.000  0.000  0.000  0.000  0.000  0.056
   1.63506    -12.500740  0.052  0.000  0.000  0.000  0.000  0.000  0.000  0.000  0.000  0.056
   1.64501    -12.502478  0.052  0.000  0.000  0.000  0.000  0.000  0.000  0.000  0.000  0.056
   1.65496    -12.503518  0.052  0.000  0.000  0.000  0.000  0.000  0.000  0.000  0.000  0.056
   1.66491    -12.503861  0.052  0.000  0.000  0.000  0.000  0.000  0.000  0.000  0.000  0.056
   1.66491    -12.503861  0.052  0.000  0.000  0.000  0.000  0.000  0.000  0.000  0.000  0.056
   1.67710    -12.503345  0.052  0.000  0.000  0.000  0.000  0.000  0.000  0.000  0.000  0.056
   1.68929    -12.501783  0.052  0.000  0.000  0.000  0.000  0.000  0.000  0.000  0.000  0.056
   1.70148    -12.499175  0.052  0.000  0.000  0.000  0.000  0.000  0.000  0.000  0.000  0.056
   1.71367    -12.495522  0.052  0.000  0.000  0.000  0.000  0.000  0.000  0.000  0.000  0.056
   1.72585    -12.490822  0.052  0.000  0.000  0.000  0.000  0.000  0.000  0.000  0.000  0.053
   1.73804    -12.485079  0.052  0.000  0.000  0.000  0.000  0.000  0.000  0.000  0.000  0.053
   1.75023    -12.478294  0.052  0.000  0.000  0.000  0.000  0.000  0.000  0.000  0.000  0.053
   1.76242    -12.470469  0.053  0.000  0.000  0.000  0.000  0.000  0.000  0.000  0.000  0.053
   1.77461    -12.461606  0.053  0.000  0.000  0.000  0.000  0.000  0.000  0.000  0.000  0.053
   1.78680    -12.451708  0.053  0.000  0.000  0.000  0.000  0.000  0.000  0.000  0.000  0.053
   1.79899    -12.440777  0.053  0.000  0.000  0.000  0.000  0.000  0.000  0.000  0.000  0.053
   1.81117    -12.428817  0.053  0.000  0.000  0.000  0.000  0.000  0.000  0.000  0.000  0.053
   1.82336    -12.415832  0.053  0.000  0.000  0.000  0.000  0.000  0.000  0.000  0.000  0.053
   1.83555    -12.401836  0.053  0.000  0.000  0.000  0.000  0.000  0.000  0.000  0.000  0.053
   1.84774    -12.386828  0.053  0.000  0.000  0.000  0.000  0.000  0.000  0.000  0.000  0.053
   1.85993    -12.370808  0.053  0.000  0.000  0.000  0.000  0.000  0.000  0.000  0.000  0.053
   1.87212    -12.353782  0.053  0.000  0.000  0.000  0.000  0.000  0.000  0.000  0.000  0.053
   1.88430    -12.335755  0.050  0.000  0.000  0.000  0.000  0.000  0.000  0.000  0.000  0.053
   1.89649    -12.316735  0.050  0.000  0.000  0.000  0.000  0.000  0.000  0.000  0.000  0.053
   1.90868    -12.296727  0.050  0.000  0.000  0.000  0.000  0.000  0.000  0.000  0.000  0.053
   1.92087    -12.275740  0.050  0.000  0.000  0.000  0.000  0.000  0.000  0.000  0.000  0.053
   1.93306    -12.253783  0.050  0.000  0.000  0.000  0.000  0.000  0.000  0.000  0.000  0.053
   1.94525    -12.230867  0.050  0.000  0.000  0.000  0.000  0.000  0.000  0.000  0.000  0.054
   1.95744    -12.207003  0.050  0.000  0.000  0.000  0.000  0.000  0.000  0.000  0.000  0.051
   1.96962    -12.182200  0.047  0.000  0.000  0.000  0.000  0.000  0.000  0.000  0.000  0.051
   1.98181    -12.156472  0.047  0.000  0.000  0.000  0.000  0.000  0.000  0.000  0.000  0.051
   1.99400    -12.129840  0.048  0.001  0.001  0.001  0.000  0.000  0.000  0.000  0.000  0.051
   2.00619    -12.102324  0.048  0.001  0.001  0.001  0.000  0.000  0.000  0.000  0.000  0.051
   2.01838    -12.073934  0.048  0.001  0.001  0.001  0.000  0.000  0.000  0.000  0.000  0.051
   2.03057    -12.044688  0.045  0.001  0.001  0.001  0.000  0.000  0.000  0.000  0.000  0.052
   2.04276    -12.014609  0.045  0.001  0.001  0.001  0.000  0.000  0.000  0.000  0.000  0.052
   2.05494    -11.983722  0.045  0.001  0.001  0.001  0.000  0.000  0.000  0.000  0.000  0.049
   2.06713    -11.952055  0.046  0.001  0.001  0.001  0.000  0.000  0.000  0.000  0.000  0.049
   2.07932    -11.919641  0.043  0.001  0.001  0.001  0.000  0.000  0.000  0.000  0.000  0.049
   2.09151    -11.886515  0.043  0.001  0.001  0.001  0.000  0.000  0.000  0.000  0.000  0.050
   2.10370    -11.852719  0.043  0.001  0.001  0.001  0.000  0.000  0.000  0.000  0.000  0.050
   2.11589    -11.818302  0.041  0.001  0.001  0.001  0.000  0.000  0.000  0.000  0.000  0.047
   2.12807    -11.783318  0.041  0.001  0.001  0.001  0.000  0.000  0.000  0.000  0.000  0.048
   2.14026    -11.747830  0.041  0.001  0.001  0.001  0.000  0.000  0.000  0.000  0.000  0.048
   2.15245    -11.711912  0.039  0.001  0.001  0.001  0.000  0.000  0.000  0.000  0.000  0.049
   2.16464    -11.675660  0.039  0.001  0.001  0.001  0.000  0.000  0.000  0.000  0.000  0.046
   2.17683    -11.639160  0.037  0.002  0.002  0.002  0.000  0.000  0.000  0.000  0.000  0.047
   2.18902    -11.602526  0.037  0.002  0.002  0.002  0.000  0.000  0.000  0.000  0.000  0.047
   2.20121    -11.565891  0.038  0.002  0.002  0.002  0.000  0.000  0.000  0.000  0.000  0.045
   2.21339    -11.529410  0.036  0.002  0.002  0.002  0.000  0.000  0.000  0.000  0.000  0.046
   2.22558    -11.493262  0.034  0.002  0.002  0.002  0.000  0.000  0.000  0.000  0.000  0.047
   2.23777    -11.457655  0.035  0.002  0.002  0.002  0.000  0.000  0.000  0.000  0.000  0.045
   2.24996    -11.422819  0.033  0.002  0.002  0.002  0.000  0.000  0.000  0.000  0.000  0.046
   2.26215    -11.389012  0.034  0.002  0.002  0.002  0.000  0.000  0.000  0.000  0.000  0.044
   2.26215    -11.389012  0.034  0.002  0.002  0.002  0.000  0.000  0.000  0.000  0.000  0.044
   2.27434    -11.405132  0.034  0.004  0.002  0.003  0.000  0.000  0.000  0.000  0.000  0.046
   2.28653    -11.420290  0.034  0.004  0.002  0.003  0.000  0.000  0.000  0.000  0.000  0.046
   2.29871    -11.434481  0.035  0.004  0.002  0.003  0.000  0.000  0.000  0.000  0.000  0.046
   2.31090    -11.447699  0.035  0.004  0.002  0.003  0.000  0.000  0.000  0.000  0.000  0.046
   2.32309    -11.459942  0.035  0.004  0.002  0.003  0.000  0.000  0.000  0.000  0.000  0.046
   2.33528    -11.471207  0.035  0.004  0.002  0.003  0.000  0.000  0.000  0.000  0.000  0.046
   2.34747    -11.481489  0.035  0.004  0.002  0.003  0.000  0.000  0.000  0.000  0.000  0.046
   2.35966    -11.490787  0.035  0.004  0.002  0.003  0.000  0.000  0.000  0.000  0.000  0.046
